num crossings	time (s)	maj axis (mm)	min axis (mm)	theta (rad )	slope (V/s)
8481	22553.454406	39.308485	-10.021736	2.867549	13.043780
8483	22555.533131	39.362857	-9.997237	2.867851	9.433836
8485	22557.609000	39.471529	-10.006787	2.868475	12.368487
8487	22559.687840	39.308268	-9.998735	2.869642	12.308799
8489	22561.766855	39.386845	-10.006218	2.866241	10.052354
8491	22563.846845	39.167118	-10.006344	2.863712	11.329347
8495	22568.012267	38.965954	-10.028400	2.861308	9.414632
8497	22570.092522	39.163474	-10.027695	2.858014	11.976939
8499	22572.173673	38.856149	-10.012223	2.856332	10.963301
8501	22574.259535	38.878717	-9.980905	2.854579	11.071095
8503	22576.343186	38.816406	-10.018304	2.854835	10.538583
8507	22580.511085	38.705066	-9.996423	2.852121	12.516926
8509	22582.593618	38.714838	-9.999600	2.852316	13.046880
8511	22584.678058	38.523689	-10.015616	2.850907	10.281810
8513	22586.757451	38.564437	-10.011008	2.848439	9.936000
8515	22588.835675	38.725429	-10.002396	2.846664	10.703607
8517	22590.914817	38.625072	-10.043042	2.843424	12.896045
8519	22592.991909	38.593248	-10.029720	2.840532	10.715259
8521	22595.071817	38.470308	-10.003043	2.838153	11.346871
8523	22597.151622	38.458889	-9.999934	2.835795	10.916971
8525	22599.231389	38.466122	-9.969708	2.835040	11.633667
8527	22601.312861	38.301717	-9.944041	2.831795	11.159939
8531	22604.438373	38.738129	-9.657981	-0.321493	8.191632
8533	22606.520566	38.087281	-9.936924	-0.313160	18.153771
8535	22608.600836	38.187289	-9.931977	-0.313032	10.703707
8537	22610.685236	38.168169	-9.997879	-0.314970	10.126539
8539	22612.764393	38.072328	-9.948245	-0.320270	10.803607
8541	22614.845763	38.137810	-9.908177	-0.320642	11.250317
8543	22616.926039	37.990211	-9.946749	-0.321480	10.417671
8545	22619.009640	37.925793	-9.934962	-0.323826	10.354807
8547	22621.087128	37.972359	-9.918837	-0.324631	10.907277
8549	22623.167213	37.938481	-9.933710	-0.328820	11.020660
8551	22625.246306	37.840893	-9.916436	-0.329157	10.217713
8553	22627.324976	37.774966	-9.924418	-0.329424	10.529138
8555	22629.403599	37.749950	-9.914149	-0.329729	9.592467
8557	22631.483369	37.642108	-9.908180	-0.330489	10.194485
8559	22633.562555	37.503364	-9.902513	-0.331339	10.413473
8561	22635.643157	37.511069	-9.832283	-0.332892	10.547394
8563	22637.725951	37.384574	-9.839692	-0.334567	9.737149
8567	22641.893279	37.290321	-9.846422	-0.340193	11.133022
8569	22643.978002	37.283971	-9.857470	-0.344751	9.851730
8571	22646.064774	37.274874	-9.840050	-0.345366	10.731184
8573	22648.146535	37.168390	-9.865036	-0.347646	11.233446
8577	22652.312281	37.164377	-9.839272	-0.351673	10.458353
8579	22654.392123	37.165317	-9.833486	-0.353859	10.834171
8581	22656.470149	37.156011	-9.817375	-0.353166	10.365489
8583	22658.551129	37.025258	-9.809405	-0.357556	10.291375
8585	22660.627586	37.072690	-9.789044	-0.360826	10.390820
8587	22662.706392	37.021905	-9.779560	-0.363818	11.321957
8589	22664.788462	36.956745	-9.798439	-0.365756	10.414827
8591	22666.866148	36.849587	-9.767942	-0.370181	9.709947
8593	22668.951131	36.769829	-9.770355	-0.370346	10.039778
8595	22671.033638	36.648263	-9.754219	-0.372259	9.744790
8597	22673.117778	36.700239	-9.750350	-0.372257	9.716077
8599	22675.201499	36.513428	-9.737026	-0.373750	10.302498
8601	22677.284985	36.596714	-9.744995	-0.371900	9.765104
8603	22679.368851	36.496198	-9.696792	-0.377142	9.318418
8605	22681.450586	36.579537	-9.711785	-0.376522	9.878499
8607	22683.535848	36.664449	-9.662389	-0.378278	9.769985
8609	22685.617082	36.520810	-9.615382	-0.380136	9.439195
8611	22687.698421	36.439363	-9.666005	-0.381470	9.833868
8613	22689.780422	36.406889	-9.661772	-0.383593	9.985638
8615	22691.859857	36.394018	-9.634045	-0.385873	9.708919
8617	22693.940803	36.350157	-9.625422	-0.386319	9.665705
8619	22696.020637	36.383584	-9.600675	-0.387876	9.728500
8621	22698.100330	36.303823	-9.603210	-0.389060	9.440600
8623	22700.178215	36.272940	-9.572193	-0.390509	9.215911
8625	22702.259202	36.160082	-9.578554	-0.391823	9.696743
8627	22704.338720	36.139539	-9.530236	-0.392784	9.603664
8629	22706.419641	36.121008	-9.510926	-0.393836	9.981848
8631	22708.499865	36.068211	-9.482684	-0.394291	9.858089
8633	22710.585284	35.917191	-9.493486	-0.396936	9.809965
8635	22712.669557	35.894234	-9.473781	-0.400678	9.540999
8637	22714.752651	35.823663	-9.472775	-0.404989	10.130524
8641	22718.919965	35.885227	-9.405514	-0.406002	10.093738
8643	22721.002471	35.731485	-9.425456	-0.408483	9.877088
8645	22723.086449	35.734257	-9.415970	-0.411523	9.979325
8647	22725.167663	35.730726	-9.401509	-0.412733	9.790059
8649	22727.247805	35.751176	-9.401405	-0.414165	9.498628
8653	22731.406099	35.705883	-9.373683	-0.416989	9.817329
8655	22733.485820	35.626539	-9.366276	-0.424832	9.550187
8657	22735.565905	35.635564	-9.361692	-0.422944	9.617756
8659	22737.645575	35.705131	-9.319854	-0.425686	9.591262
8661	22739.721455	35.469233	-9.294359	-0.429245	9.177015
8663	22741.806986	35.398200	-9.297224	-0.430503	9.844341
8665	22743.887550	35.332734	-9.260920	-0.431597	9.317440
8667	22745.971185	35.342617	-9.254214	-0.433517	8.841568
8669	22748.054128	35.243569	-9.240902	-0.433096	9.473129
8671	22750.138179	35.171349	-9.212955	-0.433220	8.929142
8673	22752.220465	35.137924	-9.191778	-0.435621	9.160787
8675	22754.304308	35.164704	-9.182223	-0.435405	8.998451
8677	22756.386095	35.167703	-9.168346	-0.436510	8.689321
8679	22758.468059	35.095979	-9.176524	-0.439120	9.381352
8681	22760.551568	35.077201	-9.165852	-0.441940	9.309317
8683	22762.630729	35.073894	-9.116329	-0.442727	9.328438
8685	22764.711022	35.006783	-9.103558	-0.442772	8.701390
8687	22766.793225	34.956100	-9.104630	-0.444383	9.560580
8689	22768.870132	34.989361	-9.042633	-0.445532	8.676803
8691	22770.953518	34.946464	-9.034981	-0.447378	9.658862
8693	22773.032527	34.813147	-9.022109	-0.446992	8.782041
8695	22775.112705	34.742133	-8.981589	-0.448752	9.324174
8697	22777.195464	34.686047	-8.985201	-0.451188	8.835842
8699	22779.278847	34.666288	-8.951336	-0.451564	9.664605
8701	22781.362285	34.620178	-8.974293	-0.458477	9.437900
8703	22783.444140	34.568932	-8.934793	-0.455937	9.454526
8705	22785.529523	34.443897	-8.925303	-0.462494	9.131687
8707	22787.613567	34.461135	-8.899761	-0.462576	9.149671
8709	22789.696870	34.608308	-8.842169	-0.464235	9.349299
8711	22791.779619	34.563425	-8.841008	-0.465675	9.293032
8715	22795.937493	34.397055	-8.773351	-0.470208	9.102796
8717	22798.019580	34.362553	-8.746747	-0.467350	9.117659
8719	22800.100981	34.383135	-8.783515	-0.471659	9.314335
8721	22802.181487	34.371944	-8.753498	-0.474598	9.036871
8723	22804.261117	34.327795	-8.730608	-0.476547	9.203577
8725	22806.341257	34.262290	-8.722017	-0.479548	9.276075
8727	22808.420837	34.235259	-8.705210	-0.482792	8.761744
8729	22810.502402	34.191325	-8.687563	-0.483777	8.856551
8731	22812.584796	34.132096	-8.662463	-0.485423	8.759537
8733	22814.668048	34.021370	-8.653103	-0.486791	8.804911
8735	22816.751487	33.961144	-8.627177	-0.487251	8.452324
8737	22818.831825	33.973744	-8.597922	-0.487531	8.863577
8739	22820.915296	33.948890	-8.576652	-0.488432	8.968943
8741	22822.996591	33.887640	-8.557104	-0.490292	8.902801
8743	22825.079236	33.887502	-8.540332	-0.492166	8.647924
8745	22827.160415	33.830621	-8.516918	-0.492631	8.858048
8747	22829.241420	33.815919	-8.487298	-0.493382	8.751297
8749	22831.321954	33.773638	-8.469698	-0.495416	8.524888
8753	22835.484117	33.772738	-8.416811	-0.497889	9.092158
8755	22837.562846	33.738683	-8.393131	-0.499923	9.027501
8757	22839.644836	33.701863	-8.366254	-0.500466	8.672826
8759	22841.725846	33.517443	-8.351120	-0.500925	9.115443
8763	22845.891003	33.431841	-8.306020	-0.504192	8.744451
8765	22847.975138	33.442535	-8.265019	-0.505766	8.515439
8767	22850.059082	33.378607	-8.244627	-0.507966	9.297785
8769	22852.142123	33.359037	-8.224822	-0.509689	9.595961
8771	22854.225345	33.295442	-8.208934	-0.510657	8.623199
8773	22856.307305	33.282307	-8.178604	-0.513312	9.501657
8775	22858.390810	33.331042	-8.176368	-0.514302	8.553257
8777	22860.471777	33.271914	-8.142934	-0.517575	8.493507
8779	22862.552928	33.166943	-8.128621	-0.519901	8.958856
8781	22864.633968	33.298657	-8.086406	-0.519374	8.825698
8783	22866.711199	33.186927	-8.060802	-0.521347	8.750812
8785	22868.793115	33.195741	-8.050528	-0.523225	9.469837
8787	22870.873179	33.155735	-8.028803	-0.526751	9.546918
8789	22872.952679	33.110655	-7.993775	-0.528908	8.765406
8791	22875.031055	33.106887	-7.978385	-0.530147	8.363924
8793	22877.112786	33.037960	-7.947474	-0.532539	8.878771
